VAMAS Surface Chemical Analysis Standard Data Transfer Format 1988 May 4




0
NORM
REGULAR
6
0
0
0
0
0
6


2001
5
11
11
44
35
0
0
XPS

1486.6
20.0
1E37
1E37
1E37
1E37
FAT
50.00
5.0
4.500
1E37
1200
1200
1E37
1E37


-1
binding energy
eV
1386.6
-0.5
1
counts
d
pulse counting
0.200
1
70E-9
1E37
1E37
1E37
0
2794
189
22685
19188
22606
22685
22322
22241
22117
22351
22115
21606
21589
21267
21623
21338
21017
21030
20867
20768
20558
20402
20237
20433
20118
20363
19844
19620
19624
19648
19480
19187
19264
19062
19164
18995
18972
18639
18578
18558
18673
18363
18257
18227
18052
18053
18081
17771
18033
17562
17836
17631
17597
17515
17326
17501
17412
17013
16913
17072
17032
16938
16536
16629
16525
16633
16423
16320
16310
16287
16336
16067
16082
15881
15827
15782
15967
15800
15592
15486
15576
15680
15469
15713
15146
15351
15324
15151
15194
15096
14858
14959
15010
14865
14707
14560
14780
14577
14741
14427
14539
14342
14119
14369
14373
14181
14052
14246
14076
14145
13998
14072
13744
14005
13784
14086
13560
13622
13779
13711
13598
13663
13498
13629
13481
13499
13432
13387
13342
13192
13411
13261
13135
13256
13181
13144
13110
13068
12956
12805
12705
12750
12907
12716
12792
12749
12506
12526
12785
12692
12292
12719
12503
12515
12480
12578
12598
12326
12242
12295
12444
12319
12305
12453
12083
12190
12074
12314
12182
12095
12072
11832
12033
11816
11826
11890
11731
11897
11775
11629
11691
11605
11638
11773
11442
11467
11511
11512
11461
11465
11404
11426
11346
11481
11229
11402
11314
11296
11200
11042
11084
11288
11261
11185
10928
11028
11143
10960
10951
11081
10896
10851
10785
11127
11113
10942
11015
10816
10642
10729
10862
10710
10673
10808
10646
10691
10604
10619
10618
10614
10580
10583
10635
10591
10494
10425
10453
10376
10239
10474
10353
10282
10382
10350
10389
10326
10452
10410
10310
10211
10257
10208
10371
10166
10231
10062
9975
10062
9957
10143
9938
9939
10102
9984
10253
10043
9773
10013
10012
9898
9941
10010
9939
9854
9815
9783
9862
10052
10021
10198
9929
10048
10065
9920
9842
9944
9915
9899
9744
9826
9741
9690
9718
9758
9950
9634
9829
9887
9558
9785
9533
9620
9612
9912
9573
9683
9575
9670
9483
9746
9594
9534
9726
9726
9741
9816
9901
9891
9802
9870
9791
9732
9912
9922
9694
9846
9855
9671
9705
9697
9495
9517
9565
9509
9418
9386
9320
9078
9019
8881
8780
8820
8626
8643
8567
8453
8495
8271
8221
8162
8085
7995
8171
7957
7928
7980
7724
7934
7721
7715
7810
7789
7893
7685
7559
7716
7609
7627
7608
7634
7484
7620
7575
7453
7696
7579
7611
7614
7478
7545
7586
7716
7514
7326
7450
7455
7328
7513
7397
7470
7337
7259
7481
7362
7302
7399
7283
7368
7176
7423
7283
7333
7080
7261
7386
7317
7236
7380
7285
7041
7242
7166
7111
7199
7165
7143
7104
7084
7073
7092
7004
6922
7076
6951
6913
7026
7112
6971
7034
7029
6926
6986
7004
7090
6825
6958
6962
6733
6974
6912
6812
6974
6956
6981
6783
6944
6900
6940
6853
6878
6643
6768
6690
6893
6726
6935
6830
6800
6776
6672
6857
6833
6730
6680
6763
6723
6769
6760
6719
6632
6622
6742
6708
6741
6647
6838
6601
6669
6646
6733
6693
6618
6491
6393
6580
6639
6615
6581
6628
6458
6551
6544
6472
6535
6429
6479
6519
6494
6584
6461
6389
6555
6542
6481
6298
6509
6489
6406
6450
6453
6600
6555
6431
6447
6360
6399
6353
6244
6399
6393
6282
6360
6507
6393
6241
6284
6329
6320
6336
6306
6248
6238
6252
6097
6357
6354
6229
6340
6326
6297
6155
6164
6192
6230
6340
6110
6156
6103
6173
6076
6160
6353
6256
6066
6175
6212
6020
6129
6203
6061
6223
6129
6218
6184
6110
6158
5996
6158
6070
5996
6204
6025
5958
5941
6114
5970
5988
5889
6018
6012
6065
5798
5975
5970
5901
5946
5896
5884
5912
6064
5990
5931
6034
6002
5881
5910
5844
5867
5944
5932
6026
5779
5919
5922
5874
5742
5851
5826
5934
5857
5838
5719
5619
5808
5780
5805
5794
5902
5704
5702
5777
5849
5856
5804
5695
5889
5773
5729
5750
5788
5751
5905
5732
5802
5880
5711
5735
5731
5737
5805
5681
5673
5760
5777
5679
5682
5740
5667
5580
5727
5696
5812
5656
5623
5619
5613
5681
5675
5688
5380
5480
5614
5563
5673
5546
5618
5664
5541
5558
5514
5631
5547
5671
5638
5445
5586
5577
5682
5645
5488
5639
5483
5542
5464
5584
5502
5575
5484
5529
5514
5549
5582
5427
5479
5440
5348
5609
5478
5332
5392
5406
5582
5530
5503
5395
5484
5556
5450
5568
5477
5446
5547
5373
5412
5432
5368
5464
5309
5527
5507
5415
5342
5369
5266
5461
5305
5415
5448
5423
5535
5358
5356
5387
5294
5301
5301
5292
5369
5398
5355
5302
5426
5351
5355
5300
5324
5373
5279
5443
5366
5273
5227
5275
5303
5308
5289
5203
5128
5250
5294
5242
5104
5202
5147
5195
5331
5233
5134
5194
5276
5145
5054
5398
5360
5321
5218
5256
5315
5193
5193
5245
5216
5166
5185
5101
5141
5118
5159
5074
5115
4985
5009
5008
4858
4968
5028
5138
5034
4958
4938
4930
4992
4992
4929
4806
4919
4973
4900
4894
4937
4965
4740
4953
4937
5012
5083
5144
5186
5173
5165
5263
5232
5284
5332
5153
5071
5126
4890
5050
4966
4970
4934
4765
4758
4650
4674
4728
4631
4621
4616
4464
4456
4431
4467
4442
4442
4373
4230
4354
4357
4350
4306
4283
4294
4124
4290
4267
4228
4179
4131
4258
4108
4230
4318
4174
4143
4254
4235
4076
4285
4282
4138
4278
4324
4158
4106
4170
4202
4210
4172
4123
4105
3987
4104
4245
4165
4107
4031
4140
4056
4100
4007
3983
4055
3974
4076
4160
4082
3957
3997
3981
4034
4104
3934
4077
4000
3998
3986
4036
4036
4000
3963
4048
4109
3937
3951
3899
3879
3944
4060
4007
4024
3922
3842
3954
3836
3911
3872
3888
3950
3945
3907
3778
3855
3829
3887
3854
3764
3820
3856
3836
3889
3830
3883
3827
3692
3916
3762
3715
3731
3868
3793
3801
3756
3776
3676
3718
3819
3722
3790
3774
3800
3718
3677
3668
3713
3670
3788
3872
3663
3759
3701
3741
3682
3770
3723
3627
3731
3698
3658
3708
3635
3596
3628
3627
3606
3670
3655
3610
3702
3694
3703
3626
3624
3565
3658
3702
3628
3555
3578
3443
3582
3485
3513
3529
3556
3438
3465
3558
3584
3517
3348
3490
3494
3412
3526
3495
3619
3521
3467
3451
3429
3503
3436
3436
3432
3420
3395
3426
3329
3443
3494
3447
3410
3446
3228
3434
3386
3312
3403
3334
3370
3414
3354
3462
3439
3341
3319
3328
3388
3294
3328
3333
3336
3353
3364
3274
3284
3323
3331
3273
3341
3263
3210
3381
3244
3283
3278
3281
3344
3299
3343
3149
3244
3155
3135
3232
3171
3229
3258
3195
3243
3142
3249
3235
3169
3150
3264
3196
3181
3200
3180
3145
3147
3161
3048
3068
3173
3136
3070
3108
3067
3108
3097
3167
3106
3061
3086
3025
3075
3129
3142
3106
3043
3044
3168
3063
3054
2902
3020
3044
3017
3059
3013
3082
2905
2987
2966
2916
2929
2958
2980
2929
2927
2841
2952
2974
2959
2943
2937
2967
2955
2837
2854
2812
2928
2783
2939
3052
2963
2880
2855
2835
2946
2930
2874
2861
2843
2842
2763
2948
2902
2846
2819
2937
2887
2846
2928
2846
2752
2887
2882
2809
2915
2713
2853
2918
2806
2755
2739
2852
2807
2852
2790
2775
2745
2797
2787
2737
2761
2727
2828
2701
2767
2763
2664
2734
2862
2759
2818
2840
2751
2673
2781
2709
2753
2726
2785
2761
2782
2765
2777
2804
2744
2781
2785
2710
2647
2711
2667
2744
2736
2639
2689
2669
2601
2569
2656
2605
2699
2607
2569
2658
2579
2682
2571
2548
2586
2616
2666
2694
2671
2662
2665
2575
2597
2616
2550
2613
2573
2567
2533
2626
2568
2547
2555
2559
2522
2519
2597
2582
2528
2655
2579
2455
2514
2497
2536
2489
2470
2531
2551
2480
2531
2527
2543
2508
2426
2529
2461
2446
2540
2501
2520
2531
2564
2496
2564
2488
2474
2435
2452
2508
2496
2434
2448
2415
2477
2382
2607
2448
2547
2461
2519
2487
2413
2462
2477
2466
2352
2485
2363
2448
2417
2405
2369
2448
2413
2417
2481
2347
2433
2432
2481
2449
2449
2365
2401
2450
2479
2473
2359
2372
2367
2337
2374
2417
2321
2396
2310
2392
2436
2276
2363
2319
2348
2348
2423
2367
2384
2350
2303
2324
2366
2331
2359
2257
2337
2292
2225
2246
2204
2249
2251
2221
2173
2156
2263
2194
2211
2153
2245
2174
2179
2126
2161
2194
2246
2182
2193
2246
2246
2255
2084
2072
2217
2134
2151
2184
2173
2187
2196
2117
2243
2103
2146
2158
2132
2172
2163
2206
2210
2162
2173
2244
2134
2178
2140
2162
2158
2195
2091
2149
2070
2114
2123
2178
2244
2154
2073
2112
2187
2087
2053
2114
2087
2191
2064
2056
2064
2078
2084
2118
2111
2021
2055
2058
2080
2169
2037
2158
2067
2145
2122
2095
1981
1973
2094
2015
2116
2051
2055
2068
2034
2095
2038
2006
2020
2059
2056
2147
2091
2069
1970
2047
2039
2007
1966
2086
2027
2023
1981
2058
2025
2032
2006
1964
2062
2048
2032
1983
2006
2048
1983
2097
2023
2096
2042
2055
1947
2093
2025
2040
2111
1997
1984
1897
2031
2025
1980
1960
2014
1995
1959
2031
2003
1996
1970
2023
1947
1976
1983
2003
2060
1974
1895
1982
1981
1970
1929
2024
1904
1926
1997
1960
2023
1958
1927
1885
1935
1942
1931
1921
1952
1975
1892
2015
1919
1913
1929
1908
1871
1960
1933
1956
1936
1993
2038
1905
1968
1907
1922
1939
1874
1974
1876
1984
1999
1925
1997
1939
1982
1944
1926
1870
1953
1910
1961
1924
1919
1912
1850
1917
1881
1941
1849
1888
1795
1851
1911
1905
1889
1841
1939
1853
1918
1886
1895
1920
1851
1838
1915
1853
1906
1948
1854
1920
1846
1855
1883
1875
1890
1879
1882
1869
1846
1812
1904
1807
1883
1864
1886
1851
1916
1832
1800
1836
1878
1839
1866
1890
1850
1928
1870
1926
1823
1927
1896
1807
1885
1886
1827
1770
1839
1784
1773
1918
1800
1854
1847
1832
1831
1819
1720
1790
1849
1781
1919
1829
1753
1832
1857
1760
1772
1884
1741
1881
1848
1773
1797
1784
1846
1781
1872
1807
1894
1810
1848
1877
1871
1843
1790
1779
1775
1868
1810
1816
1748
1723
1796
1790
1687
1748
1671
1750
1761
1687
1798
1724
1690
1723
1808
1690
1689
1745
1733
1731
1721
1689
1733
1717
1731
1708
1698
1730
1702
1746
1882
1946
2181
2333
2604
2616
2546
2260
2004
1812
1791
1654
1644
1701
1716
1637
1669
1661
1708
1693
1621
1684
1672
1677
1628
1719
1709
1735
1730
1656
1580
1664
1708
1638
1572
1618
1688
1608
1603
1632
1640
1614
1668
1657
1636
1653
1573
1620
1641
1613
1674
1627
1583
1604
1652
1657
1622
1642
1526
1587
1664
1580
1661
1617
1597
1605
1606
1639
1620
1649
1627
1662
1617
1608
1634
1632
1600
1569
1596
1565
1587
1633
1639
1653
1570
1598
1585
1593
1577
1552
1667
1659
1531
1614
1656
1585
1619
1523
1522
1609
1539
1644
1568
1612
1505
1608
1515
1542
1580
1624
1535
1619
1549
1583
1649
1587
1566
1659
1575
1589
1597
1591
1522
1524
1614
1598
1635
1566
1551
1515
1643
1531
1645
1553
1549
1575
1516
1496
1641
1560
1547
1590
1494
1610
1577
1549
1519
1531
1598
1565
1557
1515
1557
1503
1559
1533
1533
1596
1586
1521
1556
1523
1526
1608
1559
1495
1496
1517
1566
1498
1603
1558
1532
1595
1526
1515
1639
1517
1579
1605
1500
1609
1553
1490
1520
1491
1555
1550
1541
1586
1582
1564
1510
1520
1517
1532
1495
1601
1550
1511
1568
1540
1555
1556
1476
1542
1518
1520
1454
1526
1524
1458
1532
1537
1473
1511
1546
1518
1534
1525
1554
1503
1612
1517
1645
1593
1472
1521
1569
1513
1463
1544
1567
1505
1547
1542
1524
1503
1528
1516
1523
1508
1502
1522
1531
1495
1516
1557
1478
1526
1481
1565
1541
1502
1443
1452
1570
1486
1538
1472
1513
1500
1461
1544
1441
1593
1555
1500
1481
1506
1549
1528
1507
1584
1507
1505
1459
1550
1495
1513
1504
1452
1578
1533
1463
1523
1513
1517
1557
1481
1478
1480
1512
1503
1538
1469
1488
1486
1434
1516
1453
1466
1480
1565
1525
1466
1429
1543
1428
1500
1480
1446
1460
1514
1493
1447
1513
1504
1460
1506
1551
1528
1393
1521
1451
1481
1430
1474
1401
1507
1418
1559
1491
1584
1516
1471
1426
1502
1417
1434
1416
1437
1458
1508
1478
1384
1492
1465
1447
1421
1390
1430
1479
1430
1442
1481
1479
1418
1461
1470
1479
1479
1472
1452
1432
1447
1430
1416
1470
1432
1516
1413
1497
1521
1454
1414
1390
1484
1423
1385
1426
1487
1396
1479
1425
1485
1385
1488
1511
1435
1520
1462
1385
1437
1436
1441
1417
1446
1482
1438
1423
1498
1416
1502
1448
1454
1538
1421
1507
1493
1444
1443
1511
1486
1480
1463
1424
1480
1409
1389
1509
1429
1445
1465
1400
1483
1452
1508
1427
1495
1445
1431
1474
1431
1491
1498
1427
1439
1486
1506
1491
1414
1499
1465
1451
1488
1491
1460
1486
1500
1510
1523
1507
1490
1467
1441
1463
1489
1449
1456
1445
1444
1448
1549
1487
1528
1473
1423
1427
1468
1433
1474
1451
1474
1462
1409
1453
1423
1359
1455
1476
1440
1468
1418
1416
1436
1453
1440
1425
1448
1507
1490
1499
1483
1545
1730
1864
2025
2355
2599
2519
2219
1747
1541
1439
1482
1446
1331
1406
1420
1388
1432
1399
1327
1389
1354
1420
1469
1515
1492
1514
1457
1446
1491
1369
1355
1448
1428
1396
1427
1416
1392
1371
1465
1437
1401
1428
1414
1441
1449
1339
1458
1400
1508
1369
1356
1397
1415
1447
1384
1394
1379
1402
1407
1441
1492
1410
1437
1470
1392
1440
1454
1410
1452
1441
1424
1388
1465
1405
1466
1448
1407
1367
1479
1425
1455
1461
1368
1442
1469
1467
1396
1426
1430
1460
1407
1420
1416
1541
1432
1473
1468
1521
1471
1450
1505
1509
1512
1495
1493
1479
1464
1478
1492
1467
1480
1438
1494
1490
1554
1457
1503
1510
1466
1543
1475
1560
1538
1537
1532
1463
1483
1490
1547
1489
1542
1553
1517
1615
1605
1569
1559
1531
1570
1612
1562
1565
1577
1559
1521
1525
1598
1523
1529
1522
1552
1561
1526
1538
1525
1627
1561
1587
1535
1580
1632
1581
1601
1662
1627
1624
1696
1614
1648
1761
1726
1719
1709
1664
1576
1701
1686
1597
1662
1617
1628
1523
1566
1654
1549
1586
1556
1708
1663
1671
1615
1668
1678
1610
1838
1771
1743
1827
1741
1807
1798
1858
1866
1826
1829
1896
1913
1830
1761
1715
1651
1706
1727
1670
1567
1695
1653
1604
1626
1591
1612
1618
1582
1645
1665
1717
1682
1633
1874
1723
1748
1866
1898
1908
2021
2105
2250
2326
2296
2292
2228
2140
1991
1911
1787
1766
1665
1603
1562
1509
1434
1436
1430
1364
1388
1491
1438
1474
1437
1448
1418
1328
1442
1541
1447
1482
1479
1560
1668
1984
2517
3527
4613
4650
3893
2745
1952
1561
1367
1321
1194
1150
1062
1076
1092
1143
1135
1103
1045
1157
1144
1239
1249
1328
1304
1189
1233
1145
1260
1184
1178
1209
1193
1243
1222
1169
1246
1223
1159
1145
1151
1116
1118
1076
978
1018
974
1001
975
962
947
905
982
934
970
984
1012
930
933
1020
977
1054
1023
1125
1130
1140
1286
1385
1490
1552
1637
1605
1502
1446
1219
1155
1131
1014
901
849
839
816
761
792
712
752
731
757
728
710
714
687
662
575
635
602
606
584
604
592
622
720
1106
2195
3591
4591
3971
2313
1092
585
483
427
370
371
376
420
439
391
376
366
351
329
417
468
572
609
528
457
403
451
412
363
341
312
320
300
323
284
300
321
347
318
340
317
289
328
275
303
291
290
315
287
285
305
288
319
293
265
265
277
278
289
271
303
258
252
297
295
277
289
262
295
264
275
265
307
274
302
303
298
283
271
274
276
277
282
267
281
281
287
291
282
277
264
284
305
281
282
274
271
270
263
276
304
305
294
285
285
284
289
282
303
289
267
303
283
270
287
266
297
261
271
284
290
244
296
246
262
260
282
277
270
278
235
293
300
280
262
299
277
302
305
296
280
273
298
277
309
340
286
315
312
285
295
299
303
287
302
296
302
280
277
267
283
270
266
310
267
278
280
233
260
255
264
247
233
276
267
265
262
264
272
286
285
292
309
296
305
288
317
332
275
275
300
291
288
302
300
332
305
293
262
243
237
243
220
237
205
238
189
233
210
237
226
218
192
240
222
241
219
226
228
207
215
243


2001
5
11
11
44
35
0
0
XPS

1486.6
20.0
1E37
1E37
1E37
1E37
FAT
50.00
5.0
4.500
1E37
1200
1200
1E37
1E37


-1
binding energy
eV
289.0
-0.100
1
counts
d
pulse counting
0.200
100
70E-9
1E37
1E37
1E37
0
81
149282
263170
155944
156642
156356
157438
157049
157851
158574
158110
159279
160525
160828
161953
162561
163643
165249
165783
168073
168898
171505
174353
176412
178931
182137
184525
188670
192929
195643
200488
205200
210394
215749
221262
227768
234239
240023
244354
250850
254364
257670
261186
263036
263170
262515
260106
255842
250174
243417
236138
228307
218987
211078
203424
194968
188403
181705
176028
171367
167867
164071
161024
159253
156259
155760
154751
153381
152636
152593
151714
152422
151498
150429
149960
150177
150861
149849
150362
149971
149739
149473
149461
149282


2001
5
11
11
44
35
0
0
XPS

1486.6
20.0
1E37
1E37
1E37
1E37
FAT
50.00
5.0
4.500
1E37
1200
1200
1E37
1E37


-1
binding energy
eV
110.0
-0.100
1
counts
d
pulse counting
0.200
25
70E-9
1E37
1E37
1E37
0
151
10446
132127
20384
20193
20214
20212
19984
20394
20106
20039
19774
19916
19724
19909
20037
19838
19891
19997
19831
20006
19817
20028
19871
19912
19734
19684
19846
19958
19700
19636
19720
19419
19690
19384
19607
19377
19262
19180
19149
19013
19339
18671
18762
18576
18558
18225
18273
18214
18295
17894
17737
17797
17686
17676
17435
17247
17421
17227
17305
17013
17012
17015
17079
16699
16761
16740
16587
16452
16666
16600
16678
16347
16138
16251
16290
16143
16342
16421
16331
16702
17030
16932
17471
18071
18783
19465
20598
21652
23513
25759
28758
31911
35943
41365
46248
52858
60318
68126
76239
85549
93837
103868
110952
118447
124780
128331
131336
132127
129791
126244
120336
113292
104486
94554
84726
74490
64195
54957
46657
39664
33503
28351
24390
21434
19133
17392
16140
15283
14404
14086
13309
13158
12533
12314
12146
11902
11771
11530
11600
11318
11287
11117
11184
10943
10788
10681
10729
10581
10586
10659
10533
10446
10536


2001
5
11
11
44
35
0
0
XPS

1486.6
20.0
1E37
1E37
1E37
1E37
FAT
50.00
5.0
4.500
1E37
1200
1200
1E37
1E37


-1
binding energy
eV
15.0
-0.100
1
counts
d
pulse counting
0.200
100
70E-9
1E37
1E37
1E37
0
171
23691
35773
28485
28692
28756
28727
28623
28704
28584
28918
28719
28974
29044
29106
28815
29185
29250
29496
29403
29416
29714
29838
29824
30009
30271
30420
30357
30244
30693
30973
30876
31005
31255
31511
31818
31717
31965
31780
32322
32033
32291
33085
33192
33026
33626
33657
33466
33647
33860
33797
33917
33622
33816
33773
33727
33614
34139
33495
33608
33792
33915
33958
34002
33697
33720
33644
33823
34029
33981
34733
34531
35156
35279
35011
35284
35601
35773
35720
35549
35390
35393
35263
35088
35145
34682
34198
34088
34035
33468
33448
32913
32677
32563
31897
32151
31940
32013
32000
32588
32322
32223
32339
32509
32684
32588
32841
32709
33074
33211
33388
33479
33425
33841
33603
33841
33799
33877
33840
33854
33375
33607
33673
33560
33586
33067
33036
32469
32308
32082
31640
31041
31096
30609
30481
29589
29501
28930
28578
28015
27842
27320
26716
26760
26269
25750
25650
24966
24955
24952
24558
24542
24404
24401
24299
24489
24126
24212
24041
24085
23777
24152
23932
24048
24029
23846
23866
23873
24119
24124
23691
24109
24104
24041


2001
5
11
11
44
35
0
0
XPS

1486.6
20.0
1E37
1E37
1E37
1E37
FAT
50.00
5.0
4.500
1E37
1200
1200
1E37
1E37


-1
binding energy
eV
33.0
-0.100
1
counts
d
pulse counting
0.200
25
70E-9
1E37
1E37
1E37
0
71
0
0
0
0
0
0
0
0
0
0
0
0
0
0
0
0
0
0
0
0
0
0
0
0
0
0
0
0
0
0
0
0
0
0
0
0
0
0
0
0
0
0
0
0
0
0
0
0
0
0
0
0
0
0
0
0
0
0
0
0
0
0
0
0
0
0
0
0
0
0
0
0
0


2001
5
11
11
44
35
0
0
XPS

1486.6
20.0
1E37
1E37
1E37
1E37
FAT
50.00
5.0
4.500
1E37
1200
1200
1E37
1E37


-1
binding energy
eV
15.0
-0.100
1
counts
d
pulse counting
0.200
100
70E-9
1E37
1E37
1E37
0
171
0
0
0
0
0
0
0
0
0
0
0
0
0
0
0
0
0
0
0
0
0
0
0
0
0
0
0
0
0
0
0
0
0
0
0
0
0
0
0
0
0
0
0
0
0
0
0
0
0
0
0
0
0
0
0
0
0
0
0
0
0
0
0
0
0
0
0
0
0
0
0
0
0
0
0
0
0
0
0
0
0
0
0
0
0
0
0
0
0
0
0
0
0
0
0
0
0
0
0
0
0
0
0
0
0
0
0
0
0
0
0
0
0
0
0
0
0
0
0
0
0
0
0
0
0
0
0
0
0
0
0
0
0
0
0
0
0
0
0
0
0
0
0
0
0
0
0
0
0
0
0
0
0
0
0
0
0
0
0
0
0
0
0
0
0
0
0
0
0
0
0
0
0
end of experiment
