VAMAS Surface Chemical Analysis Standard Data Transfer Format 1988 May 4




1
Experiment Type: XPS
NORM
REGULAR
5
0
0
0
0
0
5


2007
8
15
13
48
25
0
0
XPS

1486.6
20.0
1E37
1E37
1E37
1E37
FAT
50.00
5.0
4.500
1E37
1200
1200
1E37
1E37


-1
binding energy
eV
1000.0
-0.5
1
count rate
c/s
pulse counting
0.200
1
70E-9
1E37
1E37
1E37
0
2101
69
2532
1965
1972
2003
1871
1916
1934
1909
1868
1926
1871
1819
1834
1801
1833
1818
1784
1789
1837
1750
1867
1813
1781
1758
1781
1825
1743
1829
1768
1763
1805
1853
1804
1856
1834
1837
1859
1886
1915
1987
1944
1933
1953
2071
1993
2099
2002
2015
2109
2109
2004
1924
1987
1945
1849
1862
1858
1837
1778
1769
1743
1735
1718
1751
1729
1693
1608
1631
1691
1606
1647
1553
1552
1482
1583
1554
1524
1592
1482
1487
1490
1506
1555
1525
1552
1514
1523
1494
1435
1501
1520
1497
1506
1465
1531
1506
1490
1443
1525
1472
1539
1483
1400
1496
1500
1482
1482
1461
1462
1452
1345
1424
1475
1445
1442
1432
1487
1452
1530
1502
1472
1505
1412
1407
1406
1365
1449
1422
1444
1466
1445
1422
1426
1433
1414
1459
1424
1421
1528
1387
1434
1473
1390
1422
1486
1462
1484
1350
1451
1451
1418
1416
1404
1460
1376
1314
1372
1426
1361
1382
1367
1363
1368
1296
1397
1346
1436
1360
1337
1405
1387
1391
1372
1358
1434
1361
1348
1466
1396
1371
1359
1370
1404
1438
1329
1397
1399
1375
1342
1328
1365
1331
1286
1332
1353
1386
1340
1362
1310
1317
1368
1343
1251
1370
1402
1314
1306
1355
1397
1328
1312
1352
1380
1385
1343
1365
1340
1261
1398
1302
1359
1347
1336
1328
1328
1333
1294
1333
1323
1375
1341
1370
1238
1284
1314
1317
1368
1303
1254
1344
1280
1318
1291
1315
1269
1286
1312
1339
1368
1296
1282
1360
1326
1338
1320
1367
1293
1333
1324
1255
1290
1249
1312
1195
1264
1306
1317
1256
1243
1289
1287
1289
1281
1255
1292
1271
1309
1316
1304
1346
1325
1265
1294
1350
1340
1329
1329
1337
1308
1258
1259
1260
1278
1258
1210
1273
1225
1263
1317
1237
1235
1265
1325
1229
1266
1279
1273
1240
1221
1217
1248
1208
1298
1236
1246
1254
1262
1247
1222
1246
1244
1209
1287
1266
1312
1254
1275
1241
1265
1223
1265
1255
1284
1429
1248
1267
1389
1256
1292
1412
1293
1275
1321
1292
1266
1197
1200
1219
1188
1227
1251
1196
1197
1214
1193
1196
1184
1196
1176
1162
1230
1236
1154
1207
1122
1181
1144
1177
1195
1172
1180
1240
1214
1139
1190
1132
1161
1232
1197
1115
1256
1192
1153
1154
1153
1232
1175
1156
1127
1142
1131
1140
1084
1093
1231
1183
1176
1098
1145
1152
1135
1166
1185
1191
1131
1200
1151
1156
1098
1130
1087
1160
1135
1137
1074
1134
1174
1142
1104
1124
1185
1091
1145
1077
1110
1151
1120
1130
1151
1135
1114
1165
1127
1126
1080
1097
1085
1120
1189
1149
1100
1165
1130
1102
1129
1079
1078
1147
1101
1108
1139
1091
979
1084
1141
1110
1088
1113
1056
1092
1060
1122
1097
1058
1048
1096
1099
1085
1065
1149
1115
1136
1115
1108
1104
1033
1146
1102
1107
1097
1117
1064
1080
1055
1047
1121
1066
1105
1097
1063
1020
1096
1096
1137
1059
1020
1052
1079
1127
1096
1081
1062
1075
1088
1045
1035
1026
1107
1022
1081
1034
1054
1037
1094
1106
1108
1073
1089
1023
1102
1136
1084
1022
988
988
1056
1058
1047
1025
1055
1076
1069
1097
1105
1085
1013
1044
1065
1134
1073
1023
1040
1075
1049
1042
1059
1027
1048
990
1098
1022
1068
1011
1050
1009
1054
1070
1042
1109
1093
1113
1052
1078
1091
1031
1051
1007
1043
990
1020
1049
1032
1036
982
1077
1021
1060
1017
1057
1096
995
1039
1043
1011
1001
997
1001
1002
1020
999
1046
1039
1029
1080
1048
1039
1047
1040
1034
1030
1071
1013
1029
997
1059
1038
1024
976
1044
983
948
997
1007
1013
995
1004
918
989
1010
1016
986
994
1085
1044
1086
1050
1138
1126
1149
1183
1155
1135
1030
1025
1002
992
992
944
942
969
943
1025
970
933
939
1004
1000
1014
1027
985
960
988
964
944
963
921
996
947
982
978
969
976
972
1026
973
940
989
948
975
1000
1051
980
974
957
928
962
966
994
923
949
986
997
966
920
986
1013
974
964
964
951
934
1019
1023
956
913
944
956
906
962
934
993
893
928
943
963
932
954
937
944
976
929
960
975
997
963
929
935
975
929
943
992
1006
965
952
956
917
963
913
910
945
962
909
878
897
930
950
983
921
992
931
947
910
960
966
900
905
914
941
933
887
914
904
896
894
916
905
972
901
948
914
926
885
962
964
933
918
883
952
913
907
919
890
923
954
935
959
942
971
924
920
931
922
888
909
938
937
891
900
904
903
944
879
909
852
911
953
860
896
882
925
929
930
893
896
934
853
929
957
907
883
896
939
927
919
863
916
922
904
926
936
902
976
954
930
940
910
900
881
953
940
918
985
880
933
898
883
913
971
893
910
893
876
895
968
867
940
952
928
922
916
872
921
905
957
884
940
931
887
903
897
879
923
905
934
901
914
869
876
849
909
902
941
922
935
922
937
857
930
915
884
907
938
924
906
935
916
914
934
895
883
923
942
864
924
901
897
865
955
924
935
908
932
950
904
966
899
912
886
876
892
929
852
909
842
873
891
845
845
912
801
875
949
880
845
899
858
888
877
834
934
897
919
945
1094
1240
1528
1693
1824
1574
1326
1134
966
867
901
861
864
862
853
855
816
815
867
856
863
884
895
918
838
850
878
828
850
837
816
841
817
812
858
797
842
834
814
789
800
826
762
827
811
801
826
798
824
794
801
861
809
785
819
808
786
881
839
796
796
792
745
843
774
790
849
759
814
846
831
831
815
821
854
861
813
780
800
789
825
799
763
806
851
777
798
784
789
769
818
764
761
770
823
755
812
790
837
864
737
750
768
779
799
852
809
783
805
770
769
837
797
826
800
774
801
788
799
795
825
818
834
776
796
850
799
825
808
860
805
758
792
800
753
809
777
793
727
763
780
802
783
782
768
801
814
800
789
768
795
774
768
756
780
790
795
758
779
809
816
805
799
806
857
810
771
733
731
754
736
759
780
761
748
788
789
852
856
873
809
789
796
758
791
808
798
789
728
783
770
773
782
743
742
791
749
772
785
762
766
797
763
745
715
781
723
745
767
735
739
758
722
751
721
746
801
775
758
824
773
805
793
762
735
828
781
748
762
759
715
774
788
803
799
746
748
773
781
806
732
746
758
780
798
780
765
745
790
802
741
782
757
730
785
792
811
763
750
820
776
788
767
744
785
809
759
754
813
804
773
813
793
771
857
727
728
814
723
751
781
751
694
762
785
794
788
760
752
772
720
725
761
803
768
732
808
730
742
794
740
819
797
780
786
741
806
764
803
791
782
767
793
803
756
792
768
767
781
761
768
771
774
820
742
770
773
773
789
843
774
796
823
788
771
780
763
769
767
796
767
842
801
814
779
810
820
807
759
759
828
790
789
812
758
780
826
771
793
817
724
809
786
817
794
818
832
803
790
804
806
847
785
778
783
823
771
797
757
822
848
859
791
821
785
784
826
805
743
765
825
811
746
782
829
806
776
795
797
877
902
851
780
840
857
822
791
850
802
784
851
904
828
773
815
864
782
785
776
810
811
793
823
760
794
740
807
736
750
802
756
771
849
767
792
778
727
848
757
754
759
794
793
802
831
779
794
806
863
863
887
894
943
923
971
921
956
971
917
902
904
820
814
834
775
756
761
740
717
734
714
684
742
726
707
720
735
716
714
702
653
640
649
632
643
653
643
605
633
669
716
679
663
669
647
715
758
895
1042
1336
1871
2524
2532
1855
1153
759
648
584
571
597
575
539
551
601
579
524
567
580
568
600
619
700
666
649
582
618
625
579
544
555
549
510
579
553
549
539
539
573
547
535
533
516
559
553
554
545
542
566
533
542
556
577
567
530
561
521
520
541
525
557
554
565
534
556
506
531
524
556
528
550
573
534
568
543
573
572
563
537
534
515
560
513
501
564
507
549
518
604
546
539
520
549
520
559
545
546
594
553
554
506
517
614
568
595
571
559
587
584
560
525
522
561
557
567
519
593
561
552
547
582
560
563
557
545
557
637
588
565
558
583
573
562
574
561
591
521
588
563
579
558
540
628
541
596
575
567
580
555
577
560
558
563
597
562
541
616
557
611
620
590
576
537
570
626
571
641
631
642
602
600
604
640
625
626
645
590
610
588
620
625
561
646
622
567
565
566
550
611
609
618
586
572
581
587
553
588
557
560
599
581
600
569
621
615
600
642
594
609
667
624
639
739
732
743
738
786
771
753
797
796
760
748
776
678
706
722
611
600
622
624
609
548
581
554
550
560
526
560
542
504
551
572
498
514
521
488
496
443
464
465
429
469
440
466
463
472
510
497
637
696
912
1316
1861
2292
2263
1826
1229
861
671
588
554
504
524
489
453
471
456
444
422
373
487
479
534
509
554
521
501
454
461
405
364
381
352
385
362
391
382
340
367
353
368
354
382
330
398
369
410
380
392
431
387
420
401
411
455
509
482
514
516
538
551
566
545
536
434
466
418
429
393
400
343
376
340
320
299
310
324
326
286
299
306
259
256
287
252
261
256
258
277
236
226
249
227
208
206
201
192
193
211
200
236
282
360
717
1329
2056
2380
1780
960
459
278
222
197
175
175
165
188
174
142
173
169
154
192
192
254
307
278
246
245
209
203
178
165
152
159
136
144
163
128
147
136
136
161
154
153
141
138
144
190
168
162
136
161
135
135
122
146
112
138
130
129
133
131
124
133
121
111
122
145
113
135
136
133
132
140
130
116
140
147
135
127
148
140
112
122
135
133
151
130
124
126
134
139
132
141
136
121
139
141
131
147
136
137
114
133
118
132
127
157
125
130
123
113
117
121
123
121
110
145
120
105
132
137
105
146
135
144
144
134
154
138
149
158
152
148
128
143
152
148
145
131
122
134
146
158
145
159
137
150
152
147
154
147
147
136
151
116
124
146
148
118
116
119
120
127
129
102
136
106
139
142
139
143
141
166
101
127
153
137
152
137
158
132
114
129
130
175
173
144
172
147
146
146
153
144
155
147
174
125
130
131
129
122
110
102
103
109
119
112
99
78
90
129
89
108
95
100
85
92
84
84
95
104
95
90
80
106
95
100
91
108
101
95
101
106
94
81
73
95
94
92
98
99
118
113
100
114
84
100
98
96
85
97
100
114
100
110
94
102
93
101
99
91
109
123
109
97
81
88
94
116
85
83
84
94
107
89
101
85
86
103
78
79
86
89
85
96
99
100
104
107
107
98
102
101
100
106
107
101
117
100
113
69
92
93
90
104
96
98


2007
8
15
13
48
25
0
0
XPS

1486.6
20.0
1E37
1E37
1E37
1E37
FAT
50.00
5.0
4.500
1E37
1200
1200
1E37
1E37


-1
binding energy
eV
110.0
-0.100
1
count rate
c/s
pulse counting
0.200
10
70E-9
1E37
1E37
1E37
0
151
1579
23725
2497
2514
2407
2490
2484
2375
2464
2325
2366
2299
2349
2370
2209
2190
2281
2241
2271
2225
2274
2156
2153
2264
2158
2166
2184
2092
2146
2155
2138
2103
2073
1989
1999
2022
2053
2021
2048
2107
2008
2038
2012
2033
1947
2033
1949
1972
1935
2009
1977
1940
2020
2024
1958
2038
2087
2136
2071
2128
2176
2114
2366
2256
2421
2384
2537
2648
2760
2957
3094
3376
3739
3988
4436
5060
5511
6300
7057
8379
9316
10610
12058
13473
14877
16557
17930
19446
20861
22052
22885
23616
23725
23240
23023
22222
21029
19349
18121
16524
14832
13015
11306
9708
8660
7045
6089
5395
4504
4018
3478
3121
2783
2617
2506
2361
2219
2131
2161
2035
2011
2015
1915
1843
1811
1871
1831
1758
1799
1690
1730
1719
1755
1757
1728
1702
1630
1720
1667
1654
1680
1627
1647
1620
1716
1700
1662
1629
1579
1662
1656
1712
1618


2007
8
15
13
48
25
0
0
XPS

1486.6
20.0
1E37
1E37
1E37
1E37
FAT
50.00
5.0
4.500
1E37
1200
1200
1E37
1E37


-1
binding energy
eV
24.0
-0.100
1
count rate
c/s
pulse counting
0.200
50
70E-9
1E37
1E37
1E37
0
261
5179
8807
6855
6641
6608
6668
6538
6637
6687
6510
6627
6509
6417
6491
6384
6414
6411
6174
6555
6274
6207
6305
6203
6245
6173
6154
6333
6341
6143
6365
6320
6130
6305
6168
6317
6282
6157
6342
6182
6381
6407
6293
6425
6461
6360
6456
6616
6637
6629
6610
6681
6905
6814
6874
6965
6918
7114
7104
7024
7117
7093
7224
7331
7195
7262
7272
7416
7332
7321
7246
7119
7206
7129
7190
7228
7285
7225
7210
7350
7201
7379
7369
7463
7322
7459
7559
7399
7494
7533
7594
7618
7694
7640
7703
7556
7697
7686
7620
7665
7649
7813
7688
7716
7518
7698
7502
7348
7256
7201
7089
7097
7009
7083
6740
6844
6613
6831
6633
6616
6657
6637
6621
6541
6584
6502
6686
6687
6876
7068
6967
7085
7351
7477
7630
7543
7960
7906
8117
8288
8461
8644
8596
8807
8800
8754
8721
8663
8477
8571
8299
8334
8206
8009
8031
7870
7664
7709
7650
7550
7446
7468
7536
7440
7630
7491
7475
7619
7494
7580
7633
7719
7439
7538
7539
7509
7392
7524
7565
7682
7368
7620
7576
7455
7657
7409
7636
7389
7597
7464
7515
7636
7297
7413
7443
7213
7524
7092
7179
7355
7177
7080
7021
6805
6849
6795
6722
6602
6559
6455
6358
6315
6164
5943
6040
5894
5849
5752
5700
5696
5569
5604
5480
5573
5379
5403
5376
5354
5293
5327
5203
5193
5418
5319
5257
5309
5228
5278
5469
5328
5356
5358
5341
5354
5197
5329
5386
5392
5442
5289
5284
5179
5332
5223
5253
5274
5353
5425
5295
5257
5204
5367
5352
5444


2007
8
15
13
48
25
0
0
XPS

1486.6
20.0
1E37
1E37
1E37
1E37
FAT
50.00
5.0
4.500
1E37
1200
1200
1E37
1E37


-1
binding energy
eV
292.0
-0.100
1
count rate
c/s
pulse counting
0.200
40
70E-9
1E37
1E37
1E37
0
171
24562
114554
28786
27963
28163
27859
28163
28196
28339
27993
27615
28122
28091
27689
27765
27914
28106
28057
28258
28228
28132
28009
28251
28645
28418
28493
28472
28698
28929
29261
29035
28642
28833
29263
29075
29071
28985
29138
28948
28835
28487
28830
28995
28539
28767
28628
28744
28983
29119
29349
29564
29628
29985
30204
30401
30492
30942
31216
31988
32450
32965
33698
34205
34888
35886
36835
37896
38659
39527
41236
42453
44210
45894
47252
49281
51820
54130
56779
60755
65541
69808
74461
80650
86541
92735
98467
103944
107996
111816
114197
114543
114554
112011
107400
102601
95902
89647
81895
74124
67110
60221
53916
48462
43965
39986
36848
34365
32932
31257
30179
29435
28489
28110
27350
26966
26768
26803
26458
26190
25942
25824
25764
25460
25485
25320
25596
25588
25453
25257
25041
25031
25111
25153
25173
24912
24980
25006
24945
25062
25058
25198
24924
24984
24974
24767
24990
24892
25160
24616
24954
24943
24831
24995
24910
24932
24706
24778
24699
24562
24848
24914
24966
24980
24937
25135
25025
25131
24978
24831
25530
25476
25465
25611


2007
8
15
13
48
25
0
0
XPS

1486.6
20.0
1E37
1E37
1E37
1E37
FAT
50.00
5.0
4.500
1E37
1200
1200
1E37
1E37


-1
binding energy
eV
528.0
-0.100
1
count rate
c/s
pulse counting
0.200
3
70E-9
1E37
1E37
1E37
0
151
1543
2551
2469
2408
2493
2465
2419
2452
2429
2458
2344
2387
2426
2434
2498
2392
2462
2383
2431
2453
2364
2437
2467
2388
2453
2447
2400
2359
2415
2385
2356
2524
2365
2301
2323
2366
2452
2481
2410
2359
2342
2298
2496
2447
2426
2436
2492
2450
2466
2405
2443
2433
2499
2441
2367
2536
2422
2411
2386
2464
2457
2522
2471
2496
2494
2490
2385
2423
2528
2472
2489
2486
2427
2409
2401
2474
2474
2380
2423
2408
2503
2437
2359
2458
2476
2418
2465
2466
2535
2464
2422
2485
2458
2462
2430
2405
2521
2460
2390
2493
2401
2527
2551
2489
2428
1638
1718
1644
1710
1612
1701
1635
1651
1612
1678
1590
1733
1618
1649
1646
1592
1645
1655
1684
1612
1564
1561
1597
1583
1619
1575
1644
1580
1656
1563
1620
1584
1671
1555
1620
1627
1642
1554
1680
1567
1546
1585
1587
1576
1649
1611
1661
1543
end of experiment
