VAMAS Surface Chemical Analysis Standard Data Transfer Format 1988 May 4




1
Experiment Type: XPS
NORM
REGULAR
7
0
0
0
0
0
7

2006
8
22
20
5
56
0
0
XPS

1486.6
20.0
1E37
1E37
1E37
1E37
FAT
50.00
5.0
4.500
1E37
1200
1200
1E37
1E37


-1
binding energy
eV
110.0
-0.100
1
counts
d
pulse counting
0.200
10
70E-9
1E37
1E37
1E37
0
151
5985
10700
6984
7034
6947
7045
7065
6836
6922
6963
6938
7013
7039
6935
7154
6863
6810
6844
6936
7004
6757
6835
6947
7026
7032
6931
7015
6990
6992
7006
6946
6911
6926
6982
6861
6926
7064
6912
6894
7009
7013
7098
7079
7036
7085
7062
7197
7199
7382
7302
7326
7592
7703
7968
8046
8135
8271
8456
8913
9122
9328
9422
9729
9983
10256
10322
10295
10449
10582
10565
10700
10671
10345
9975
10315
10172
9769
9736
9486
9122
9279
9042
8735
8633
8547
8725
8334
8264
7917
7958
7813
7683
7753
7687
7573
7659
7604
7557
7592
7597
7606
7767
7804
7658
7969
7981
8061
8154
8153
8237
8207
8249
8090
7956
7970
7845
7525
7364
7205
7038
7012
6747
6732
6633
6546
6553
6415
6368
6309
6541
6179
6277
6191
6166
6192
6160
6162
6187
6071
6113
6154
6111
6164
6291
6146
6168
6106
6140
6132
6155
6117
5985
6131


2006
8
22
20
5
56
0
0
XPS

1486.6
20.0
1E37
1E37
1E37
1E37
FAT
50.00
5.0
4.500
1E37
1200
1200
1E37
1E37


-1
binding energy
eV
95.0
-0.100
1
counts
d
pulse counting
0.200
10
70E-9
1E37
1E37
1E37
0
151
5164
10787
6374
6158
6221
6328
6235
6320
6177
6326
6178
6218
6479
6397
6227
6267
6440
6329
6334
6393
6310
6278
6410
6418
6526
6315
6481
6375
6253
6321
6163
6307
6309
6363
6402
6264
6168
6391
6358
6204
6263
6395
6141
6428
6411
6342
6399
6426
6555
6473
6509
6497
6632
6589
6790
6876
6860
7096
7062
7224
7599
7654
7678
7802
8140
8420
8630
8821
8918
9251
9403
9578
9740
9788
9829
9702
9885
9672
9576
9461
9055
8864
8604
8289
7935
7698
7472
7371
7077
7128
7080
6972
7028
7152
7093
7202
7413
7686
7701
8088
8249
8437
8755
8950
9231
9701
9797
10184
10359
10510
10542
10782
10787
10633
10485
10224
9744
9461
9059
8790
8178
7827
7470
7190
6955
6660
6349
6247
6064
5905
5727
5791
5577
5613
5484
5373
5466
5472
5354
5424
5373
5456
5181
5230
5164
5270
5329
5353
5283
5329
5251
5391
5312
end of experiment
