VAMAS Surface Chemical Analysis Standard Data Transfer Format 1988 May 4




1
Experiment Type: XPS
NORM
REGULAR
7
0
0
0
0
0
7


2008
10
9
15
9
42
0
0
XPS

1486.6
20.0
1E37
1E37
1E37
1E37
FAT
50.00
5.0
4.500
1E37
200
200
1E37
1E37


-1
binding energy
eV
92.0
-0.100
1
count rate
c/s
pulse counting
0.200
5
70E-9
1E37
1E37
1E37
0
121
7551
38977
12064
11493
11731
11607
11556
11601
11678
11941
11709
11705
11673
12093
11891
11950
11924
12219
12050
12402
12359
12443
12724
12881
13072
13499
13568
14110
14413
15040
15848
16809
17450
18379
19776
21146
22730
24230
25922
27853
29049
30993
32359
32587
33498
33710
33512
32813
32089
30520
29101
27365
25238
23547
21653
19958
18511
17476
16363
15604
15410
14747
14692
14898
15141
15413
16068
16869
17996
18719
20326
21842
23641
25428
27585
29982
31768
33887
35800
36831
38039
38895
38977
37998
37114
35249
33450
31533
28319
26006
23547
20751
19007
17132
15375
13788
12490
11779
11153
10317
10005
9647
9435
9089
8800
8754
8485
8268
8226
8085
8187
7920
7940
7886
7944
7765
7788
7561
7634
7806
7551
7613
7605


2008
10
9
15
9
42
0
0
XPS

1486.6
20.0
1E37
1E37
1E37
1E37
FAT
50.00
5.0
4.500
1E37
200
200
1E37
1E37


-1
binding energy
eV
405.0
-0.100
1
count rate
c/s
pulse counting
0.200
50
70E-9
1E37
1E37
1E37
0
101
268053
278732
270900
269539
270771
270082
269611
269825
270192
270219
270120
270156
271631
269955
270289
270332
270435
271014
271363
270507
271004
271101
271498
271906
270487
271889
271832
270492
270892
270839
272353
271080
272195
272310
272058
272167
272756
273315
272758
273588
273753
273336
274116
274415
274015
275676
274731
275478
276224
276796
276601
276452
278732
276958
277115
278220
277736
277917
277763
277499
277163
278350
277463
276771
275978
275931
275942
275263
275019
273738
273177
273251
272697
272735
272056
271145
271812
272124
270940
271239
270466
270399
270422
270280
271385
270859
270143
270101
269695
269801
270234
268910
269690
269988
269973
268691
269742
269935
268689
269389
268053
268926
270344


2008
10
9
15
9
42
0
0
XPS

1486.6
20.0
1E37
1E37
1E37
1E37
FAT
50.00
5.0
4.500
1E37
200
200
1E37
1E37


-1
binding energy
eV
295.0
-0.100
1
count rate
c/s
pulse counting
0.200
10
70E-9
1E37
1E37
1E37
0
151
33335
50384
34653
34699
34829
34625
35000
34303
34657
34711
34607
34660
34861
34726
34723
34825
34757
34828
34686
34885
34866
34265
34374
35122
34435
34446
34832
34591
34879
34708
34708
35254
34286
34767
34858
34507
34699
34775
34806
34970
34892
34557
35072
34944
34581
34679
34688
34429
34830
34783
34918
34950
34679
35044
34797
35050
35120
35171
35157
34811
34933
34984
35098
35449
35169
35185
35298
35073
35261
35339
35454
35939
35981
35977
35784
36049
36300
36600
36865
37315
37576
37867
38105
38738
39331
39718
40159
41265
42309
42968
43704
44653
45168
46381
47301
47636
48031
49094
49447
49876
50384
50195
49966
48470
48667
47751
47145
46594
45365
44031
43594
42479
41038
40781
39463
38837
37557
37304
36938
36092
36038
35465
35040
34998
34799
34596
34010
33996
34292
33957
33825
33637
34145
33709
34089
33975
33581
33520
33511
33853
33418
34160
33544
33439
33690
33594
33464
33576
33349
33335
33806
33665
33465


2008
10
9
15
9
42
0
0
XPS

1486.6
20.0
1E37
1E37
1E37
1E37
FAT
50.00
5.0
4.500
1E37
200
200
1E37
1E37


-1
binding energy
eV
175.0
-0.100
1
count rate
c/s
pulse counting
0.200
50
70E-9
1E37
1E37
1E37
0
201
167940
181557
169862
171156
170312
170475
170784
170206
171179
170608
170353
170587
170099
170641
170424
170985
171718
171344
170546
170957
171164
171863
170594
170516
170988
171713
170991
170962
171567
171103
171097
171296
171058
171385
171923
171324
170876
170843
171623
170702
171446
172419
172238
171922
172184
171421
172566
171815
172189
172149
173366
172764
172817
172766
173226
173343
172812
172957
172576
172698
172541
172772
172991
172273
171771
172120
171714
171885
171905
172109
171898
171755
171084
171320
171711
171064
170756
172025
170995
171501
170955
171300
171102
171407
171368
171244
171381
170942
171319
170607
171250
171803
171619
172648
172024
172816
172207
172341
172930
172810
172635
172757
172523
172953
174219
173333
174035
173376
173497
173815
174856
174738
173749
174718
175054
175333
176340
175987
177369
177070
177247
178718
179315
179256
179394
180118
179929
180688
181224
181318
181208
181557
181430
181053
180892
180309
179392
179489
178845
178519
178078
176780
176341
174945
175072
174264
172637
172681
171000
172009
171206
171096
170354
169928
170059
169788
169218
169268
168834
169572
169865
169416
168529
169015
169631
169155
169009
169542
168559
169184
168236
167940
168933
168509
170174
169224
169168
168954
168495
168840
169314
168851
169930
168891
168960
169504
169357
169712
170030
169950
170282
170336
170204
171027
169970
171301
170677
171085
171095
171005
171575
171657
171837


2008
10
9
15
9
42
0
0
XPS

1486.6
20.0
1E37
1E37
1E37
1E37
FAT
50.00
5.0
4.500
1E37
200
200
1E37
1E37


-1
binding energy
eV
410.0
-0.100
1
count rate
c/s
pulse counting
0.200
5
70E-9
1E37
1E37
1E37
0
201
27864
29423
28120
28520
28584
28401
28870
28331
28396
28510
28322
28414
28272
28298
28490
28710
28354
28320
28520
28361
28494
28280
28586
28301
28136
28276
28163
28361
28302
28586
28398
28607
28703
28264
28401
28560
28213
28453
28511
28765
28370
28191
28200
28304
28222
28149
28337
28006
28560
28569
28341
28457
28537
28449
28033
28253
28288
28387
28403
28649
28566
28451
28424
28878
28303
28251
28471
28494
28007
28463
28546
28479
28473
28490
28288
28355
28582
28586
28285
28135
28580
28748
28639
28298
28528
28803
28805
28827
28819
28603
28760
28785
28854
28802
28886
29173
28909
28889
28965
29140
29278
28770
29061
28934
28901
29394
28847
29137
29423
29199
28989
29074
29117
28949
29189
28915
28795
29130
28963
28870
28824
29088
28780
28880
28651
28431
28530
28573
28451
28604
28711
28483
28614
28442
28350
28316
28112
28287
28644
28346
28006
28389
28456
28342
28215
28266
28210
28214
28552
28287
28179
28175
28182
28392
28243
28392
28135
28295
27892
28067
28028
28070
28000
27952
28065
28006
28582
28206
28241
28184
28095
28095
28064
28095
28007
27987
28248
28422
28357
27988
28166
27915
27864
28257
27944
28224
28109
28136
28030
28080
27992
28114
28319
28036
28482
28003
28126
28075
28246
27910
28141
28345
28362


2008
10
9
15
9
42
0
0
XPS

1486.6
20.0
1E37
1E37
1E37
1E37
FAT
50.00
5.0
4.500
1E37
200
200
1E37
1E37


-1
binding energy
eV
10.0
-0.100
1
count rate
c/s
pulse counting
0.200
25
70E-9
1E37
1E37
1E37
0
121
13944
31747
18894
18997
18734
18787
18934
18959
19053
19077
19360
19258
19432
19501
19954
20118
20318
20467
20624
21277
21474
22032
22315
23067
23509
23911
24317
25181
25703
26613
27326
27934
28456
28834
29193
29662
30487
30367
30279
30388
30630
30507
30450
29990
30271
29934
29906
29613
29640
29178
29469
29101
29388
29485
29776
30159
29833
30178
30669
30565
30754
31248
31026
31312
31374
31747
31310
31078
30763
30788
30350
30275
29790
29313
28613
28353
27453
26596
26053
25534
24198
23894
23061
22676
21551
21188
20152
19908
19525
18845
18409
18169
17962
17753
17251
17191
17007
16865
16356
16421
16044
15754
15363
15418
15225
15105
14920
14752
14462
14315
14393
14362
14291
14267
14348
13944
14085
14172
14250
14147
13992
14120
14170


2008
10
9
15
9
42
0
0
XPS

1486.6
20.0
1E37
1E37
1E37
1E37
FAT
50.00
5.0
4.500
1E37
200
200
1E37
1E37


-1
binding energy
eV
1000.0
-0.5
1
count rate
c/s
pulse counting
0.200
1
70E-9
1E37
1E37
1E37
0
2001
627
12971
12797
12971
12925
12875
12905
12870
12683
12812
12436
12515
12561
12555
12334
12219
12273
12169
12153
12133
11999
12046
12158
12188
11846
12007
12056
11984
11857
11860
11776
11992
11818
11912
11856
11653
12045
11902
11933
11985
12270
12166
12209
12359
12286
12328
12605
12409
12791
12715
12327
12178
12277
12301
12334
12093
12066
11708
11784
11688
11509
11589
11363
11524
11359
11196
11349
11427
11334
11287
11464
11462
11327
11323
11418
11321
11393
11374
11579
11259
11265
11551
11417
11447
11466
11228
11296
11028
11031
11180
11147
11077
11016
10827
10757
10715
10438
10669
10642
10599
10626
10485
10698
10625
10594
10513
10661
10493
10838
10374
10606
10623
10667
10449
10579
10554
10537
10451
10639
10469
10630
10753
10504
10523
10537
10425
10585
10410
10146
10325
10355
10390
10305
10230
10508
10341
10559
10532
10323
10560
10506
10419
10565
10343
10358
10369
10409
10496
10528
10244
10444
10387
10441
10484
10304
10333
10368
10285
10463
10291
10356
10486
10320
10379
10560
10604
10314
10512
10142
10378
10364
10450
10439
10431
10293
10362
10345
10338
10252
10296
10190
10177
10225
10157
10256
10115
10248
10240
10207
10247
10221
10159
10167
10106
10176
10160
10211
10065
9951
10159
10143
10229
10151
10060
10154
10246
10094
10269
10121
10048
10115
9999
10231
9907
10033
9828
10190
9958
10069
10054
10087
9982
9998
9780
9795
9884
9926
9944
9922
9805
9846
9824
9762
9772
9752
9705
9784
9733
9852
9617
9761
9814
9604
9788
9546
9673
9716
9706
9780
9718
9824
9820
9706
9633
9820
9769
9477
9836
9760
9626
9682
9508
9786
9639
9801
9731
9602
9695
9711
9661
9735
9507
9671
9635
9675
9533
9728
9597
9413
9597
9819
9781
9625
9693
9770
9626
9661
9778
9755
9616
9546
9564
9699
9711
9666
9749
9637
9625
9687
9627
9672
9583
9444
9661
9558
9705
9506
9640
9710
9713
9631
9528
9469
9693
9549
9399
9528
9426
9580
9589
9608
9620
9435
9551
9376
9436
9560
9427
9315
9398
9403
9453
9353
9481
9621
9416
9536
9589
9660
9558
9563
9229
9373
9256
9076
9093
9174
9190
8992
8961
9162
9139
9019
9022
9017
9074
9051
9001
9028
9047
9098
8982
9064
9036
8872
8963
8971
8873
9020
8838
8860
9055
8942
8952
9043
9071
8862
9126
8755
8999
8969
8910
9076
9040
8949
9031
9178
9002
8856
8736
9065
8976
8864
8951
9053
9081
8853
8770
9019
8918
9037
8761
9058
8921
8715
8943
9028
8813
8913
8885
8964
8833
8828
8697
8793
8905
9013
8833
9015
8723
8889
8908
8921
8870
8906
9083
8834
8823
9173
9053
8945
8806
8966
8948
8964
8962
9107
9018
9069
8869
9016
8864
8851
8734
8911
8894
8819
8816
8713
8800
8779
8800
8637
8712
8829
8767
8588
8767
8747
8809
8811
8619
8820
8680
8660
8674
8648
8569
8708
8679
8749
8814
8590
8823
8630
8615
8755
8486
8556
8592
8732
8738
8703
8534
8683
8593
8666
8533
8470
8625
8641
8614
8576
8776
8645
8573
8347
8734
8649
8756
8667
8551
8647
8678
8627
8407
8431
8552
8683
8490
8752
8598
8585
8631
8494
8655
8581
8564
8540
8502
8456
8571
8512
8589
8523
8500
8476
8795
8602
8498
8283
8484
8458
8532
8633
8649
8496
8604
8637
8512
8464
8616
8564
8551
8618
8515
8474
8662
8620
8593
8849
8406
8861
8656
8589
8696
8705
8613
8747
8512
8590
8601
8383
8601
8692
8682
8598
8694
8572
8566
8586
8649
8497
8532
8734
8642
8689
8584
8675
8759
8686
8862
8817
8602
8466
8715
8502
8396
8269
8228
8271
8136
8481
8171
8266
8179
8150
8104
8175
8208
8201
8498
8302
8353
8301
8065
8170
8225
8155
8001
8204
8221
8175
7996
8005
8002
7929
7793
7912
7935
8033
7814
7875
7915
7914
7885
7988
7985
8201
8214
8368
8423
8219
8143
7848
7875
7818
7727
7789
7879
7628
7854
7822
7708
7747
7873
7735
7795
7814
7735
7708
7845
7619
7770
7922
7648
7723
7861
7741
7691
7773
7633
7824
7769
7790
7727
7775
7682
7695
7784
7978
7670
7774
7871
7580
7833
7744
7809
7733
7671
7717
7726
7660
7558
7679
7745
7793
7882
7755
7567
7555
7665
7787
7757
7620
7640
7771
7808
7685
7694
7683
7800
7689
7669
7672
7943
7758
7886
7773
7732
7655
7905
7765
7879
7794
7914
7986
7932
7864
7831
7859
7775
7686
7890
7591
7633
7785
7649
7496
7607
7769
7674
7681
7619
7646
7554
7627
7695
7557
7826
7763
7559
7419
7552
7532
7517
7402
7551
7700
7626
7598
7558
7634
7423
7715
7594
7694
7699
7566
7860
7651
7717
7812
7777
7796
7655
7521
7723
7759
7639
7689
7773
7787
7614
7542
7668
7703
7625
7636
7822
7721
7687
7682
7766
7570
7666
7668
7815
7760
7612
7747
7617
7582
7696
7741
7644
7774
7737
7549
7546
7667
7702
7643
7670
7798
7690
7645
7641
7678
7695
7760
7823
7723
7581
7531
7769
7664
7567
7636
7736
7729
7621
7659
7789
7853
8006
8075
8254
8020
8170
8123
8251
8170
8146
8037
7963
7867
7551
7750
7975
7534
7545
7573
7715
8034
7838
8206
8415
8650
8455
8592
8475
8155
8015
7819
7515
7385
7060
6927
6941
6896
6846
6918
6717
6802
6773
6749
6696
6825
6923
6871
6550
6613
6782
6641
6647
6653
6701
6634
6608
6550
6468
6683
6664
6460
6511
6682
6703
6482
6439
6573
6625
6638
6608
6729
6495
6578
6430
6542
6556
6646
6457
6566
6712
6623
6822
6791
6783
6858
6887
6901
6764
6581
6686
6497
6424
6312
6347
6209
6133
6035
6283
6067
6198
6200
6104
6119
6046
6045
6163
6057
6299
6368
6323
6660
6839
7361
7668
8076
7952
8191
7767
7164
6520
6219
6086
5745
5969
5810
5863
5732
5938
5939
5887
5734
5968
6079
5996
6016
5996
6033
5799
6001
5931
5940
5832
5785
5732
5787
5752
5741
5776
5824
5733
5847
5837
5811
5630
5743
5816
5712
5671
5739
5791
5730
5824
5867
5797
5701
5767
5950
5803
5708
5804
5723
5705
5772
5618
5687
5810
5736
5837
5735
5774
5816
5809
5696
5826
5731
5836
5884
5758
5751
5745
5800
5661
5768
5756
5826
5712
5693
5813
5547
5678
5800
5669
5820
5806
5686
5739
5752
5749
5679
5762
5655
5796
5660
5736
5752
5834
5693
5708
5821
5711
5803
5791
5613
5812
5753
5708
5747
5791
5764
5919
5867
5870
5771
5760
5817
5837
5854
5775
5742
5807
5751
5643
5801
5644
5714
5795
5739
5736
5838
5625
5712
5829
5689
5713
5812
5830
5813
5940
5828
5806
5666
5793
5765
5799
5873
5815
5756
5743
5638
5716
5818
5915
5835
5817
6031
5978
5711
5704
5745
5778
5817
5787
5711
5783
5781
5815
5996
6014
6088
6034
5898
5836
5796
5787
5734
5663
5719
5781
5677
5609
5780
5641
5726
5801
5613
5846
5930
5757
5650
5938
5801
5694
5700
5776
5710
5823
5679
5725
5717
5702
5838
5709
5745
5737
5742
5814
5769
5764
5708
5807
5790
5780
5824
5836
5682
5580
5786
5778
5661
5773
5556
5757
5651
5870
5832
5778
5619
5774
5573
5772
5719
5729
5770
5652
5698
5732
5696
5756
5799
5686
5559
5871
5721
5500
5809
5761
5660
5775
5707
5510
5725
5669
5613
5719
5770
5563
5921
5852
5816
5938
5682
5781
5783
5711
5668
5587
5706
5757
5670
5739
5804
5662
5660
5702
5700
5728
5652
5599
5671
5714
5621
5551
5598
5644
5637
5761
5747
5761
5669
5724
5635
5586
5648
5613
5685
5612
5620
5552
5599
5570
5610
5603
5517
5571
5566
5555
5620
5572
5580
5397
5618
5632
5526
5642
5554
5397
5438
5491
5559
5438
5471
5569
5494
5309
5534
5538
5575
5426
5392
5462
5355
5400
5465
5265
5414
5377
5416
5413
5279
5498
5378
5404
5431
5446
5541
5607
5649
5831
5896
6034
6177
6291
6329
6287
6070
5825
5482
5383
5097
5239
5266
5212
4993
4887
4970
4764
4807
4731
4734
4758
4714
4648
4824
4679
4659
4587
4692
4864
4727
4707
4834
5009
5175
5329
5477
5818
5954
6040
6096
5892
5580
5335
5069
4910
4665
4540
4366
4380
4163
4092
4057
4162
4044
4079
4003
4033
3980
3909
3946
3955
3877
3949
3893
3953
3811
3946
3852
3789
3781
3858
3828
3705
3749
3795
3916
3826
3654
3612
3718
3754
3727
3620
3793
3727
3727
3715
3624
3636
3709
3758
3632
3688
3811
3645
3699
3722
3586
3677
3675
3670
3495
3564
3547
3583
3627
3529
3627
3562
3546
3697
3522
3588
3599
3612
3640
3531
3574
3688
3618
3590
3578
3643
3659
3534
3529
3612
3555
3622
3514
3634
3528
3652
3639
3736
4033
4324
4748
5039
5071
4812
4327
3900
3641
3555
3441
3467
3453
3399
3527
3486
3453
3404
3450
3510
3435
3515
3635
3554
3554
3476
3544
3581
3568
3530
3452
3483
3511
3406
3449
3486
3337
3302
3480
3479
3506
3413
3463
3369
3482
3366
3438
3512
3527
3541
3494
3505
3445
3426
3453
3463
3384
3356
3410
3397
3467
3412
3323
3386
3443
3347
3465
3434
3528
3409
3460
3378
3456
3401
3485
3374
3378
3387
3389
3409
3450
3444
3360
3473
3429
3504
3557
3482
3443
3498
3455
3474
3505
3366
3503
3476
3402
3485
3371
3549
3538
3373
3453
3432
3405
3393
3496
3511
3404
3357
3431
3487
3498
3490
3488
3520
3502
3445
3607
3518
3577
3589
3521
3623
3426
3553
3537
3509
3465
3521
3437
3370
3429
3400
3500
3396
3435
3565
3406
3597
3513
3524
3374
3462
3469
3454
3397
3419
3487
3486
3453
3432
3495
3483
3390
3397
3387
3414
3464
3402
3429
3421
3449
3313
3516
3455
3432
3506
3373
3399
3457
3522
3473
3505
3455
3488
3499
3547
3456
3432
3533
3430
3424
3396
3359
3463
3501
3502
3386
3550
3567
3427
3502
3577
3543
3587
3379
3486
3471
3427
3450
3443
3359
3509
3436
3527
3496
3393
3418
3439
3505
3498
3505
3515
3600
3547
3411
3396
3515
3410
3584
3330
3529
3467
3431
3434
3469
3458
3517
3503
3519
3358
3478
3573
3571
3483
3528
3443
3463
3402
3536
3441
3526
3566
3533
3556
3547
3613
3680
3706
3637
3675
3592
3476
3416
3396
3435
3461
3521
3385
3513
3562
3410
3450
3415
3414
3507
3586
3420
3561
3518
3480
3428
3593
3423
3427
3323
3400
3455
3380
3514
3435
3395
3426
3409
3509
3382
3386
3425
3382
3501
3461
3479
3521
3439
3529
3310
3495
3401
3454
3361
3443
3370
3441
3431
3474
3425
3339
3426
3267
3340
3411
3352
3228
3288
3365
3337
3405
3261
3309
3289
3343
3314
3245
3295
3356
3272
3277
3312
3292
3416
3358
3243
3364
3419
3403
3389
3407
3326
3405
3279
3335
3381
3326
3413
3322
3308
3408
3445
3444
3444
3404
3280
3367
3351
3282
3394
3276
3294
3354
3351
3293
3304
3170
3231
3209
3073
3147
3067
3124
3056
3077
3101
2993
2980
2983
2904
2870
2811
2805
2727
2709
2584
2690
2575
2530
2626
2505
2495
2447
2535
2463
2466
2608
2651
2954
3721
5262
6829
6873
5337
3708
3164
3581
5021
7280
8236
6642
3950
2604
2006
1861
1634
1623
1649
1657
1697
1867
1858
1857
1829
1706
1798
1836
1888
1987
1855
1730
1708
1616
1645
1511
1388
1307
1289
1306
1241
1219
1222
1269
1259
1300
1302
1244
1283
1281
1260
1282
1230
1248
1202
1247
1274
1271
1289
1355
1323
1377
1356
1337
1337
1378
1402
1256
1365
1276
1267
1181
1183
1179
1235
1183
1063
1215
1135
1179
1134
1121
1150
1064
1095
1168
1092
1136
1167
1229
1210
1237
1136
1160
1146
1141
1090
1027
941
1018
996
948
933
1015
932
903
953
971
957
951
946
940
932
953
914
977
943
943
934
950
915
933
874
938
935
961
917
932
895
930
898
861
944
881
911
871
854
872
823
934
904
882
904
832
859
859
862
807
849
797
777
816
797
724
723
715
786
765
767
790
772
817
904
986
1182
1232
1238
1184
1143
1178
1190
1277
1227
1053
890
759
734
630
627
end of experiment
